start_time,end_time,note_value,velocity,instrument_program_number
0.87810093,1.1739005,68,60,0
1.1739005,1.3218002,64,66,0
1.3218002,1.4671048,61,60,0
1.4671048,1.6131331,64,60,0
1.6131331,1.7599068,68,60,0
1.7599068,1.9074409,64,64,0
1.9074409,2.0522895,61,60,0
2.0522895,2.1974747,64,60,0
2.1974747,2.343596,69,60,0
2.343596,2.4905355,63,63,0
2.4905355,2.63584,60,60,0
2.63584,2.7818682,63,60,0
2.7818682,2.9286203,69,60,0
2.9286203,3.0761278,63,63,0
3.0761278,3.2211957,60,60,0
3.2211957,3.366733,63,60,0
3.366733,3.5127382,68,60,0
3.5127382,3.6593256,68,66,0
3.6593256,3.8040555,64,63,0
3.8040555,3.9496186,68,63,0
3.9496186,4.0960174,76,63,0
4.0960174,4.243291,68,66,0
4.243291,4.3883586,64,63,0
4.3883586,4.5338964,68,63,0
4.5338964,4.6800175,73,63,0
4.6800175,4.826722,69,67,0
4.826722,4.971106,68,60,0
4.971106,5.1161737,66,61,0
5.1161737,5.261946,73,62,0
5.261946,5.4084163,72,68,0
5.4084163,5.5553355,66,65,0
5.5553355,5.7012224,68,66,0
5.7012224,5.8479657,72,67,0
5.8479657,5.9955945,73,72,0
5.9955945,6.140508,64,63,0
6.140508,6.2861533,68,65,0
6.2861533,6.4325233,73,67,0
6.4325233,6.57964,76,69,0
6.57964,6.7240705,68,64,0
6.7240705,6.869228,76,66,0
6.869228,7.0153565,80,68,0
7.0153565,7.1638966,76,73,0
7.1638966,7.309953,69,64,0
7.309953,7.45601,76,66,0
7.45601,7.602066,80,68,0
7.602066,7.7481227,74,70,0
7.7481227,7.8941793,78,67,0
7.8941793,8.0402355,73,70,0
8.0402355,8.186292,76,67,0
8.186292,8.331205,72,68,0
8.331205,8.476903,75,65,0
8.476903,8.623369,73,67,0
8.623369,8.770623,76,65,0
8.770623,8.918665,75,68,0
8.918665,9.067507,78,64,0
9.067507,9.217278,72,69,0
9.217278,9.371246,75,64,0
9.371246,9.517491,76,68,0
9.517491,9.664746,73,67,0
9.664746,9.813242,71,66,0
9.813242,9.96278,69,64,0
9.96278,10.1134815,68,63,0
10.1134815,10.265478,66,62,0
10.265478,10.418565,64,60,0
10.418565,10.57287,63,59,0
10.57287,10.729873,64,62,0
10.729873,10.878284,61,57,0
10.878284,11.027179,64,57,0
11.027179,11.176553,68,57,0
11.176553,11.326046,64,60,0
11.326046,11.473873,61,57,0
11.473873,11.622406,64,57,0
11.622406,11.771541,69,57,0
11.771541,11.920676,63,59,0
11.920676,12.068503,59,57,0
12.068503,12.217156,63,57,0
12.217156,12.366649,69,57,0
12.366649,12.516971,63,59,0
12.516971,12.665382,59,57,0
12.665382,12.814277,63,57,0
12.814277,12.963769,68,57,0
12.963769,13.113854,68,62,0
13.113854,13.261565,61,59,0
13.261565,13.409977,68,59,0
13.409977,13.559113,73,59,0
13.559113,13.709081,66,62,0
13.709081,13.857492,63,59,0
13.857492,14.006387,66,59,0
14.006387,14.15576,73,59,0
14.15576,14.305728,68,63,0
14.305728,14.452859,64,59,0
14.452859,14.600803,68,59,0
14.600803,14.749698,73,59,0
14.749698,14.897408,68,62,0
14.897408,15.045703,64,60,0
15.045703,15.194597,68,60,0
15.194597,15.3440895,71,60,0
15.3440895,15.494293,67,68,0
15.494293,15.642544,64,59,0
15.642544,15.791546,67,61,0
15.791546,15.941277,70,63,0
15.941277,16.091772,76,65,0
16.091772,16.239529,70,60,0
16.239529,16.38803,76,62,0
16.38803,16.537518,79,64,0
16.537518,16.685226,75,64,0
16.685226,16.833523,79,62,0
16.833523,16.982416,75,63,0
16.982416,17.131908,78,61,0
17.131908,17.282112,69,62,0
17.282112,17.432919,76,61,0
17.432919,17.584341,69,62,0
17.584341,17.736504,75,60,0
17.736504,17.889284,69,59,0
17.889284,18.042814,78,56,0
18.042814,18.196978,68,59,0
18.196978,18.351776,76,56,0
18.351776,18.507359,64,58,0
18.507359,18.663584,73,55,0
18.663584,18.820461,61,57,0
18.820461,18.97776,69,55,0
18.97776,19.134829,59,57,0
19.134829,19.290943,68,55,0
19.290943,19.446117,64,57,0
19.446117,19.600492,71,56,0
19.600492,19.753946,59,57,0
19.753946,19.906488,69,56,0
19.906488,20.058132,63,57,0
20.058132,20.209013,71,56,0
20.358889,20.507896,63,54,0
20.507896,20.657026,59,54,0
20.209013,20.657026,69,57,0
20.657026,20.80628,69,57,0
20.80628,20.955534,68,57,0
20.955534,21.104166,64,53,0
21.104166,21.250904,68,55,0
21.250904,21.399246,69,57,0
21.399246,21.55153,71,59,0
21.55153,21.704592,68,50,0
21.704592,21.858438,71,53,0
21.858438,22.012283,80,46,0
22.012283,22.163038,71,49,0
22.163038,22.313791,78,44,0
22.313791,22.464546,72,49,0
22.464546,22.6153,76,46,0
22.6153,22.77692,73,53,0
22.77692,22.934565,64,56,0
22.934565,23.09271,73,54,0
23.09271,23.251358,76,55,0
23.251358,23.41051,71,59,0
23.41051,23.567537,75,54,0
23.567537,23.725431,69,57,0
23.725431,23.884205,73,54,0
23.884205,24.043865,68,57,0
24.043865,24.201511,59,54,0
24.201511,24.359655,68,54,0
24.359655,24.518303,71,54,0
24.518303,24.677454,64,57,0
24.677454,24.8351,58,51,0
24.8351,24.993496,64,52,0
24.993496,25.152647,73,52,0
25.152647,25.316742,66,54,0
25.316742,25.478502,57,49,0
25.478502,25.640263,66,49,0
25.640263,25.802023,71,49,0
25.802023,25.963783,66,53,0
25.963783,26.125542,57,48,0
26.125542,26.287302,66,48,0
26.287302,26.449062,71,48,0
26.449062,26.603828,64,48,0
26.603828,26.758596,56,44,0
26.758596,26.913363,64,44,0
26.913363,27.068129,68,44,0
27.687197,27.841963,63,48,0
27.841963,27.99673,57,43,0
27.99673,28.151497,63,43,0
28.151497,28.306263,71,43,0
28.925331,29.082037,64,48,0
29.082037,29.238745,56,45,0
29.238745,29.39545,64,45,0
29.39545,29.552158,68,45,0
29.552158,29.709124,68,44,0
29.709124,29.867102,71,49,0
29.867102,30.0261,76,53,0
30.0261,30.200447,80,58,0
30.357843,30.515242,68,46,0
30.200447,30.515242,80,62,0
30.67264,30.830038,68,47,0
30.515242,30.830038,76,56,0
30.987434,31.144833,68,44,0
30.830038,31.144833,75,53,0
31.30223,31.45963,68,44,0
31.144833,31.45963,74,50,0
31.45963,31.612347,73,48,0
31.612347,31.765066,61,43,0
31.765066,31.917784,69,43,0
31.917784,32.070503,73,43,0
32.681377,32.834095,68,48,0
32.834095,32.986813,62,42,0
32.986813,33.13953,68,42,0
33.13953,33.29225,76,42,0
33.903126,34.055843,69,48,0
34.055843,34.20856,61,42,0
34.20856,34.36128,69,42,0
34.36128,34.514,73,43,0
34.514,34.66624,73,43,0
34.66624,34.819706,76,48,0
34.819706,34.9744,81,53,0
34.9744,35.152588,85,59,0
35.152588,35.307854,85,64,0
35.307854,35.463116,73,56,0
35.463116,35.61838,81,61,0
35.61838,35.773643,73,56,0
35.773643,35.928905,80,61,0
35.928905,36.08417,76,56,0
36.08417,36.239433,78,61,0
36.239433,36.3947,75,55,0
36.3947,36.556652,76,66,0
36.3947,36.556652,68,66,0
36.3947,36.556652,64,66,0
36.556652,36.721485,68,61,0
36.721485,36.887756,66,61,0
36.887756,37.055798,68,61,0
37.055798,37.22533,64,58,0
37.22533,37.39655,68,62,0
37.39655,37.569485,63,66,0
37.569485,37.74352,68,69,0
37.74352,37.9021,64,80,0
37.9021,38.060677,61,74,0
38.060677,38.219257,64,74,0
38.219257,38.37784,68,74,0
38.37784,38.536415,64,78,0
38.536415,38.694996,61,74,0
38.694996,38.8479,64,74,0
38.8479,39.001328,69,74,0
39.001328,39.15528,63,76,0
39.15528,39.309895,60,74,0
39.309895,39.46517,63,74,0
39.46517,39.621124,69,74,0
39.621124,39.77763,63,76,0
39.77763,39.934826,60,74,0
39.934826,40.086956,63,74,0
40.086956,40.23973,68,74,0
40.23973,40.393288,68,80,0
40.393288,40.547504,64,76,0
40.547504,40.70252,68,76,0
40.70252,40.8582,76,76,0
40.8582,41.014706,68,80,0
41.014706,41.171764,64,76,0
41.171764,41.323895,68,76,0
41.323895,41.4768,73,76,0
41.4768,41.630486,69,82,0
41.630486,41.7851,68,74,0
41.7851,41.940514,66,75,0
41.940514,42.09674,73,76,0
42.09674,42.2538,72,83,0
42.2538,42.411682,63,79,0
42.411682,42.563812,68,80,0
42.563812,42.716717,72,82,0
42.716717,42.870407,73,88,0
42.870407,43.02502,68,76,0
43.02502,43.180435,73,79,0
43.180435,43.33666,76,82,0
43.33666,43.493717,76,84,0
43.493717,43.651882,68,82,0
43.651882,43.804787,76,86,0
43.804787,43.958473,80,90,0
43.958473,44.113087,76,93,0
44.113087,44.2685,69,90,0
44.2685,44.42473,76,88,0
44.42473,44.581924,80,85,0
44.581924,44.73995,74,86,0
44.73995,44.89895,78,82,0
44.89895,45.05108,73,86,0
45.05108,45.203205,76,82,0
45.203205,45.356113,72,83,0
45.356113,45.509148,75,79,0
45.509148,45.662838,73,82,0
45.662838,45.816658,76,76,0
45.816658,45.971138,75,81,0
45.971138,46.125885,78,75,0
46.125885,46.281162,72,79,0
46.281162,46.436443,75,72,0
46.436443,46.589348,76,79,0
46.589348,46.743168,73,74,0
46.743168,46.897915,71,69,0
46.897915,47.053463,69,65,0
47.053463,47.20997,68,61,0
47.20997,47.36744,66,57,0
47.36744,47.525738,64,53,0
47.525738,47.68502,63,48,0
47.68502,47.850418,64,42,0
47.850418,48.00533,61,45,0
48.00533,48.16168,64,45,0
48.16168,48.31935,68,45,0
48.31935,48.478653,64,48,0
48.478653,48.63421,61,45,0
48.63421,48.790688,64,45,0
48.790688,48.948093,69,45,0
48.948093,49.10644,63,47,0
49.10644,49.261097,59,45,0
49.261097,49.416653,63,45,0
49.416653,49.57313,69,45,0
49.57313,49.730537,63,47,0
49.730537,49.886093,59,45,0
49.886093,50.042572,63,45,0
50.042572,50.200115,68,45,0
50.200115,50.358734,68,49,0
50.358734,50.513515,61,47,0
50.513515,50.669205,68,47,0
50.669205,50.825943,73,47,0
50.825943,50.983753,66,49,0
50.983753,51.13918,63,47,0
51.13918,51.29553,66,47,0
51.29553,51.452663,73,47,0
51.452663,51.60921,68,50,0
51.60921,51.763992,64,47,0
51.763992,51.919815,68,47,0
51.919815,52.076557,73,47,0
52.076557,52.234634,68,49,0
52.234634,52.38942,64,48,0
52.38942,52.545105,68,48,0
52.545105,52.701847,71,48,0
52.701847,52.859657,67,54,0
52.859657,53.014698,64,47,0
53.014698,53.171307,67,48,0
53.171307,53.329517,70,50,0
53.329517,53.489502,76,52,0
53.489502,53.644413,70,48,0
53.644413,53.80037,76,49,0
53.80037,53.957638,79,51,0
53.957638,54.115986,75,51,0
54.115986,54.269863,79,49,0
54.269863,54.42439,75,50,0
54.42439,54.579685,78,48,0
54.579685,54.73577,69,49,0
54.73577,54.892643,76,48,0
54.892643,55.05032,69,49,0
55.05032,55.208797,75,48,0
55.208797,55.3681,69,47,0
55.3681,55.528084,78,44,0
55.528084,55.6889,68,47,0
55.6889,55.85056,76,44,0
55.85056,56.013065,64,46,0
56.013065,56.17643,73,44,0
56.17643,56.340664,61,45,0
56.340664,56.50577,69,44,0
56.50577,56.66367,59,45,0
56.66367,56.821564,68,44,0
56.821564,56.979458,64,45,0
56.979458,57.137352,71,44,0
57.137352,57.295513,59,45,0
57.295513,57.452396,69,44,0
57.452396,57.60794,63,45,0
57.60794,57.762035,71,44,0
57.91472,58.067142,63,43,0
58.067142,58.220463,59,43,0
57.762035,58.220463,69,45,0
58.220463,58.374687,69,45,0
58.374687,58.529972,68,45,0
58.529972,58.68618,59,42,0
58.68618,58.839912,64,44,0
58.839912,58.993362,66,45,0
58.993362,59.14795,68,47,0
59.14795,59.30096,64,43,0
59.30096,59.45483,68,45,0
59.45483,59.609184,76,44,0
59.609184,59.766563,68,47,0
59.766563,59.923946,75,44,0
59.923946,60.081326,68,48,0
60.081326,60.23871,73,44,0
60.23871,60.397102,69,48,0
60.397102,60.55098,61,44,0
60.55098,60.705357,69,46,0
60.705357,60.860218,73,46,0
60.860218,61.015564,68,47,0
61.015564,61.168823,71,43,0
61.168823,61.322952,66,45,0
61.322952,61.477936,69,43,0
61.477936,61.656013,64,45,0
61.656013,61.83182,56,43,0
61.83182,62.00821,64,43,0
62.00821,62.185165,68,43,0
62.185165,62.362682,61,45,0
62.362682,62.53849,55,40,0
62.53849,62.715168,61,41,0
62.715168,62.892685,69,41,0
62.892685,63.083015,63,43,0
63.083015,63.270607,54,39,0
63.270607,63.458202,63,39,0
63.458202,63.645798,68,39,0
63.645798,63.83339,63,42,0
63.83339,64.02098,54,38,0
64.02098,64.20858,63,38,0
64.20858,64.39617,68,38,0
64.39617,64.57198,61,38,0
64.57198,64.74779,52,35,0
64.74779,64.9236,61,35,0
64.9236,65.0994,64,35,0
65.80264,65.97845,61,38,0
65.97845,66.15426,52,34,0
66.15426,66.33007,61,34,0
66.33007,66.505875,64,34,0
67.209114,67.36047,62,38,0
67.36047,67.51183,57,36,0
67.51183,67.6632,62,36,0
67.6632,67.81456,66,36,0
67.81456,67.96617,66,35,0
67.96617,68.11875,69,39,0
68.11875,68.2723,74,42,0
68.2723,68.4407,78,46,0
68.60924,68.77778,74,36,0
68.4407,68.77778,81,49,0
68.77778,68.94632,69,37,0
68.94632,69.11485,71,37,0
68.77778,69.11485,78,44,0
69.11485,69.283394,73,35,0
69.283394,69.451935,68,35,0
69.11485,69.451935,76,42,0
69.451935,69.620476,72,35,0
69.620476,69.78902,68,35,0
69.451935,69.78902,75,40,0
69.78902,69.94397,73,38,0
69.94397,70.09893,64,34,0
70.09893,70.25389,73,34,0
70.25389,70.40885,76,34,0
71.02869,71.18364,73,38,0
71.18364,71.3386,64,33,0
71.3386,71.49356,73,33,0
71.49356,71.64852,76,33,0
72.26836,72.41657,74,38,0
72.41657,72.5648,69,39,0
72.5648,72.71302,74,44,0
72.71302,72.86124,78,49,0
72.86124,73.009,81,55,0
73.009,73.15794,78,53,0
73.15794,73.30807,74,50,0
73.30807,73.481,69,47,0
73.481,73.644936,68,44,0
73.644936,73.80887,76,44,0
73.80887,73.9728,64,48,0
73.9728,74.13674,73,44,0
74.13674,74.300674,66,48,0
74.300674,74.46461,75,44,0
74.46461,74.62854,63,48,0
74.62854,74.79247,72,44,0
74.79247,74.97997,64,51,0
74.97997,75.16747,73,42,0
75.16747,75.35497,64,43,0
75.16747,75.35497,61,43,0
75.35497,75.54247,68,35,0
75.54247,75.7438,66,38,0
75.54247,75.7438,63,38,0
75.7438,75.953606,68,31,0
75.953606,76.170235,63,34,0
75.953606,76.170235,60,34,0
76.170235,76.394135,68,30,0
78.34535,78.54016,65,36,0
78.54016,78.75445,68,36,0
78.75445,79.57636,70,32,0
78.75445,79.57636,66,32,0
79.57636,79.86857,68,28,0
79.57636,79.86857,65,28,0
79.96597,80.16078,65,36,0
80.16078,80.37057,68,36,0
80.37057,81.19249,73,33,0
80.37057,81.19249,70,33,0
80.37057,81.19249,66,33,0
81.19249,81.484695,68,30,0
81.19249,81.484695,65,30,0
81.5821,81.7769,68,37,0
81.5821,81.7769,65,37,0
81.7769,81.97171,62,37,0
81.97171,82.771706,66,39,0
81.97171,82.771706,63,39,0
82.771706,83.15633,75,36,0
82.771706,83.15633,66,36,0
83.15633,83.34863,77,39,0
83.15633,83.34863,68,39,0
83.34863,83.54094,75,37,0
83.34863,83.54094,66,37,0
83.54094,84.340935,73,38,0
83.54094,84.340935,65,38,0
84.340935,84.649155,68,31,0
84.340935,84.649155,65,31,0
84.7519,84.9394,65,36,0
84.9394,85.1269,68,36,0
85.1269,85.91121,70,32,0
85.1269,85.91121,66,32,0
85.91121,86.19423,68,30,0
85.91121,86.19423,65,30,0
86.28857,86.47725,65,36,0
86.47725,86.69308,68,36,0
86.69308,87.48255,73,32,0
86.69308,87.48255,70,32,0
86.69308,87.48255,66,32,0
87.48255,87.76557,68,28,0
87.48255,87.76557,65,28,0
87.85991,88.04859,68,37,0
87.85991,88.04859,65,37,0
88.04859,88.23727,62,37,0
88.23727,88.80331,66,39,0
88.23727,88.80331,63,39,0
88.80331,88.98735,75,36,0
88.80331,88.98735,66,36,0
88.98735,89.1714,77,37,0
88.98735,89.1714,68,37,0
89.1714,89.35545,75,36,0
89.1714,89.35545,66,36,0
89.35545,89.539505,73,37,0
89.35545,89.539505,65,37,0
89.539505,89.72355,75,37,0
89.539505,89.72355,66,37,0
89.72355,90.97355,73,40,0
89.72355,90.97355,65,40,0
90.97355,91.17355,56,43,0
91.17355,91.37355,60,43,0
91.37355,92.18988,61,47,0
91.37355,92.18988,56,47,0
91.37355,92.18988,52,47,0
92.18988,92.57949,60,38,0
92.18988,92.57949,56,38,0
92.18988,92.57949,51,38,0
92.57949,92.776855,56,48,0
92.776855,92.97423,60,48,0
92.97423,93.785034,61,53,0
92.97423,93.785034,64,53,0
92.97423,93.785034,56,53,0
93.785034,94.1672,60,45,0
93.785034,94.1672,63,45,0
93.785034,94.1672,56,45,0
94.1672,94.368546,63,53,0
94.1672,94.368546,60,53,0
94.368546,94.569885,69,53,0
94.569885,95.62252,68,56,0
94.569885,95.62252,64,56,0
94.569885,95.62252,61,56,0
95.62252,96.24107,68,38,0
95.62252,96.24107,63,38,0
95.62252,96.24107,60,38,0
96.24107,96.59821,69,27,0
96.59821,96.95536,71,27,0
96.24107,96.95536,63,25,0
96.24107,96.95536,59,25,0
96.95536,98.8501,68,26,0
96.95536,98.8501,64,24,0
96.95536,98.8501,59,24,0
98.8501,99.049164,65,32,0
99.049164,99.266556,68,32,0
99.266556,100.106544,70,27,0
99.266556,100.106544,66,23,0
100.106544,100.39875,68,25,0
100.106544,100.39875,65,21,0
100.496155,100.690956,65,32,0
100.690956,100.89929,68,32,0
100.89929,101.7101,73,30,0
100.89929,101.7101,70,25,0
100.89929,101.7101,66,25,0
101.7101,101.98788,68,24,0
101.7101,101.98788,65,20,0
102.080475,102.265656,68,33,0
102.080475,102.265656,65,28,0
102.265656,102.45084,62,33,0
102.45084,103.22007,66,38,0
102.45084,103.22007,63,32,0
103.22007,103.60469,75,31,0
103.22007,103.60469,66,26,0
103.60469,103.79577,77,37,0
103.60469,103.79577,68,31,0
103.79577,103.986855,75,33,0
103.79577,103.986855,66,28,0
103.986855,104.77633,73,40,0
103.986855,104.77633,65,34,0
104.77633,105.06295,68,30,0
104.77633,105.06295,65,25,0
105.15849,105.34958,65,32,0
105.34958,105.549576,68,32,0
105.549576,106.3288,70,31,0
105.549576,106.3288,66,26,0
106.3288,106.61182,68,30,0
106.3288,106.61182,65,25,0
106.706154,106.89484,65,32,0
106.89484,107.09483,68,32,0
107.09483,107.869026,73,31,0
107.09483,107.869026,70,26,0
107.09483,107.869026,66,26,0
107.869026,108.146805,68,26,0
107.869026,108.146805,65,22,0
108.2394,108.42458,68,33,0
108.2394,108.42458,65,28,0
108.42458,108.621956,62,33,0
108.621956,109.198875,66,40,0
108.621956,109.198875,63,34,0
109.198875,109.3796,75,32,0
109.198875,109.3796,66,27,0
109.3796,109.560326,77,33,0
109.3796,109.560326,68,28,0
109.560326,109.74104,75,32,0
109.560326,109.74104,66,27,0
109.74104,109.92177,73,33,0
109.74104,109.92177,65,28,0
109.92177,110.10249,75,33,0
109.92177,110.10249,66,28,0
110.10249,111.379814,73,36,0
110.10249,111.379814,65,30,0
111.379814,111.57507,56,36,0
111.57507,111.77033,60,36,0
111.77033,112.57711,61,39,0
111.77033,112.57711,56,36,0
111.77033,112.57711,52,36,0
112.57711,112.967636,60,31,0
112.57711,112.967636,56,29,0
112.57711,112.967636,51,29,0
112.967636,113.162895,56,39,0
113.162895,113.35816,60,39,0
113.35816,114.15286,61,40,0
113.35816,114.15286,64,44,0
113.35816,114.15286,56,40,0
114.15286,114.54339,60,34,0
114.15286,114.54339,63,37,0
114.15286,114.54339,56,34,0
114.54339,114.73865,63,44,0
114.54339,114.73865,60,40,0
114.73865,114.93391,69,44,0
114.93391,115.942314,68,48,0
114.93391,115.942314,64,44,0
114.93391,115.942314,61,44,0
115.942314,116.53637,68,38,0
115.942314,116.53637,63,35,0
115.942314,116.53637,60,35,0
116.53637,116.93637,69,26,0
116.93637,117.33637,71,26,0
116.53637,117.33637,63,24,0
116.53637,117.33637,59,24,0
117.33637,118.659904,68,26,0
117.33637,118.659904,64,24,0
117.33637,118.659904,59,24,0
118.659904,118.845085,68,47,0
118.845085,119.03027,69,47,0
118.659904,119.03027,64,47,0
118.659904,119.03027,59,47,0
119.03027,119.77101,66,51,0
119.03027,119.77101,63,51,0
119.03027,119.77101,59,51,0
119.77101,120.12189,68,44,0
119.77101,120.12189,64,44,0
119.77101,120.12189,59,44,0
120.12189,120.297325,68,49,0
120.297325,120.47276,69,49,0
120.12189,120.47276,64,49,0
120.12189,120.47276,59,49,0
120.47276,121.19133,66,53,0
120.47276,121.19133,63,53,0
120.47276,121.19133,59,53,0
121.19133,121.53419,68,48,0
121.19133,121.53419,64,48,0
121.19133,121.53419,59,48,0
121.53419,121.70561,66,53,0
121.70561,121.877045,68,53,0
121.53419,121.877045,63,53,0
121.53419,121.877045,59,53,0
121.877045,122.59133,64,56,0
121.877045,122.59133,61,56,0
121.877045,122.59133,56,56,0
122.59133,122.932236,66,60,0
122.59133,122.932236,61,60,0
122.59133,122.932236,57,60,0
122.932236,123.10565,63,56,0
123.10565,123.27906,66,56,0
122.932236,123.27906,57,56,0
123.27906,123.94171,64,52,0
123.27906,123.94171,56,52,0
124.00195,124.34481,76,45,0
124.00195,124.34481,68,45,0
124.34481,124.516235,76,48,0
124.516235,124.68767,80,48,0
124.34481,124.68767,69,48,0
124.68767,125.39355,78,51,0
124.68767,125.39355,69,51,0
125.39355,125.73446,69,47,0
125.39355,125.73446,66,47,0
125.73446,125.90491,68,53,0
125.73446,125.90491,64,53,0
125.90491,126.07536,69,53,0
125.90491,126.07536,66,53,0
126.07536,126.77304,71,54,0
126.07536,126.77304,68,54,0
126.77304,127.110115,76,48,0
126.77304,127.110115,68,48,0
127.110115,127.278656,76,54,0
127.278656,127.4472,80,54,0
127.110115,127.4472,69,54,0
127.4472,128.1329,78,55,0
127.4472,128.1329,69,55,0
128.1329,128.46625,69,51,0
128.1329,128.46625,75,51,0
128.46625,128.6329,76,51,0
128.46625,128.6329,68,51,0
128.6329,128.79958,73,51,0
128.6329,128.79958,69,51,0
128.79958,129.48923,71,50,0
128.79958,129.48923,68,50,0
129.48923,129.83406,64,47,0
129.48923,129.83406,68,47,0
