start_time,end_time,note_value,velocity,instrument_program_number
8.152175,8.315219,64,64,0
8.315219,8.478262,63,64,0
8.478262,8.804349,64,64,0
8.804349,9.130436,66,64,0
9.130436,9.456523,67,64,0
9.456523,9.619567,67,64,0
9.619567,9.78261,66,64,0
9.78261,10.108697,67,64,0
10.108697,10.434784,69,64,0
10.434784,10.597828,71,64,0
10.597828,10.760871,69,64,0
10.760871,10.923915,67,64,0
10.923915,11.086958,69,64,0
11.086958,11.413045,71,64,0
11.413045,11.739132,72,64,0
11.739132,12.065219,63,64,0
12.065219,12.391306,59,64,0
12.717393,13.04348,64,64,0
13.04348,13.206524,66,64,0
13.206524,13.369567,67,64,0
13.369567,13.532611,64,64,0
13.532611,13.695654,66,64,0
13.695654,13.858698,67,64,0
13.858698,14.021741,69,64,0
14.021741,14.184785,66,64,0
14.184785,14.347828,67,64,0
14.347828,14.673915,69,64,0
14.673915,15.000002,67,64,0
15.000002,15.326089,66,64,0
15.326089,15.652176,71,64,0
15.652176,15.978263,64,64,0
15.978263,16.141306,66,64,0
16.141306,16.30435,68,64,0
16.30435,16.467394,69,64,0
16.467394,16.630438,71,64,0
16.630438,16.79348,72,64,0
16.79348,16.956524,74,64,0
16.956524,17.282612,76,64,0
17.282612,17.608698,69,64,0
17.608698,18.260872,68,64,0
18.260872,18.58696,69,64,0
18.58696,18.913046,69,64,0
18.913046,19.239134,67,64,0
19.239134,19.56522,65,64,0
19.56522,19.891308,64,64,0
19.891308,20.217394,72,64,0
20.217394,20.543482,71,64,0
20.543482,20.869568,69,64,0
20.869568,21.195656,68,64,0
21.195656,21.521742,76,64,0
21.521742,21.84783,74,64,0
21.84783,22.173916,72,64,0
22.33696,22.500004,72,64,0
22.500004,22.663046,74,64,0
22.663046,22.82609,71,64,0
22.82609,22.989134,72,64,0
22.989134,23.152178,71,64,0
23.31522,23.478264,72,64,0
23.478264,23.641308,74,64,0
23.641308,23.804352,76,64,0
23.804352,23.967394,77,64,0
23.967394,24.130438,74,64,0
24.130438,25.1087,76,64,0
25.1087,25.434786,69,64,0
25.434786,25.59783,71,64,0
25.59783,25.760874,72,64,0
25.760874,26.413048,74,64,0
26.413048,26.739134,72,64,0
26.739134,27.065222,71,64,0
27.065222,27.391308,69,64,0
27.391308,27.717396,67,64,0
27.717396,28.043482,76,64,0
28.043482,28.36957,74,64,0
28.36957,28.695656,72,64,0
28.695656,29.34783,71,64,0
29.673918,30.326092,69,64,0
30.326092,30.489134,67,64,0
30.489134,30.652178,66,64,0
30.652178,30.815222,67,64,0
30.815222,30.978266,69,64,0
30.978266,31.141308,71,64,0
31.141308,31.304352,67,64,0
31.304352,31.956526,72,64,0
32.28261,32.6087,71,64,0
32.6087,32.771744,69,64,0
32.771744,32.934788,67,64,0
32.934788,33.09783,69,64,0
33.09783,33.260876,71,64,0
33.260876,33.58696,72,64,0
33.58696,33.913048,66,64,0
33.913048,34.07609,71,64,0
34.07609,34.239136,69,64,0
34.239136,34.40218,72,64,0
34.40218,34.565224,71,64,0
34.565224,34.728264,69,64,0
34.728264,34.891308,67,64,0
34.891308,35.05435,66,64,0
35.05435,35.217396,67,64,0
35.543484,35.706528,76,64,0
35.706528,35.86957,77,64,0
35.86957,36.195656,76,64,0
36.195656,36.521744,74,64,0
36.521744,36.84783,72,64,0
36.84783,37.010876,72,64,0
37.010876,37.17392,74,64,0
37.17392,37.500004,72,64,0
37.500004,37.82609,71,64,0
37.989136,38.15218,71,64,0
38.15218,38.315224,72,64,0
38.315224,38.478268,71,64,0
38.478268,38.80435,69,64,0
38.80435,39.13044,67,64,0
39.13044,39.456528,78,64,0
39.456528,39.782616,81,64,0
40.1087,40.434788,76,64,0
40.434788,40.59783,74,64,0
40.59783,40.760876,72,64,0
40.760876,40.92392,76,64,0
40.92392,41.086964,74,64,0
41.086964,41.250004,72,64,0
41.250004,41.413048,71,64,0
41.413048,41.57609,74,64,0
41.57609,41.739136,72,64,0
41.739136,42.065224,71,64,0
42.065224,42.39131,72,64,0
42.39131,42.55435,74,64,0
42.55435,42.717396,71,64,0
42.717396,42.88044,69,64,0
42.88044,43.043484,67,64,0
43.043484,43.125008,76,64,0
43.125008,43.206528,78,64,0
43.206528,43.36957,76,64,0
43.36957,43.532616,78,64,0
43.532616,43.69566,79,64,0
43.69566,44.184788,78,64,0
44.184788,44.32066,79,64,0
44.355984,45.98642,79,64,0
45.98642,46.149464,79,64,0
46.149464,46.312508,81,64,0
46.312508,46.63859,79,64,0
46.63859,46.96468,77,64,0
46.96468,47.127724,76,64,0
47.127724,47.290768,74,64,0
47.290768,47.45381,72,64,0
47.45381,47.616856,74,64,0
47.616856,47.779896,76,64,0
47.779896,47.94294,77,64,0
47.94294,48.43207,79,64,0
48.43207,48.595116,77,64,0
48.595116,48.75816,76,64,0
48.75816,48.921204,77,64,0
48.921204,49.084244,79,64,0
49.084244,49.247288,81,64,0
49.247288,49.41033,82,64,0
49.41033,49.573376,79,64,0
49.573376,50.062508,81,64,0
50.062508,50.22555,82,64,0
50.22555,50.71468,79,64,0
50.71468,50.877724,81,64,0
50.877724,51.040768,77,64,0
51.040768,51.20381,76,64,0
51.20381,51.366856,77,64,0
51.366856,51.5299,79,64,0
51.5299,51.855984,81,64,0
51.855984,52.18207,69,64,0
52.18207,52.345116,74,64,0
52.345116,52.50816,79,64,0
52.50816,52.671204,77,64,0
52.834248,52.888596,77,64,0
52.888596,52.942944,76,64,0
52.942944,52.99729,77,64,0
52.99729,53.051636,76,64,0
53.051636,53.105984,77,64,0
53.105984,53.323376,76,64,0
53.323376,53.459248,74,64,0
53.49457,54.47283,74,64,0
54.47283,54.79892,76,64,0
54.79892,56.755444,77,64,0
56.918488,57.081528,76,64,0
57.081528,57.24457,74,64,0
57.24457,57.407616,72,64,0
57.407616,57.733704,71,64,0
57.733704,58.385876,72,64,0
58.385876,58.711964,71,64,0
58.711964,59.690224,72,64,0
59.690224,60.01631,70,64,0
60.01631,61.32066,69,64,0
61.646748,61.972836,68,64,0
61.972836,62.29892,69,64,0
62.29892,62.625008,71,64,0
62.625008,63.277184,64,64,0
63.440228,63.603268,66,64,0
63.603268,63.76631,68,64,0
63.76631,63.929356,69,64,0
63.929356,64.0924,71,64,0
64.0924,64.25544,72,64,0
64.41849,64.58153,72,64,0
64.58153,65.55979,74,64,0
65.55979,66.21197,72,64,0
66.21197,66.864136,71,64,0
66.864136,67.02718,69,64,0
67.02718,67.19022,68,64,0
67.19022,68.494576,69,64,0
68.494576,69.14675,68,64,0
69.14675,69.47283,69,64,0
69.47283,69.63588,69,64,0
69.63588,69.79892,68,64,0
69.79892,70.12501,69,64,0
70.12501,70.451096,71,64,0
70.451096,70.77718,72,64,0
70.77718,70.94022,72,64,0
70.94022,71.10327,71,64,0
71.10327,71.42936,72,64,0
71.42936,71.75545,74,64,0
71.75545,71.91849,76,64,0
71.91849,72.08153,74,64,0
72.08153,72.244576,72,64,0
72.244576,72.407616,74,64,0
72.407616,72.7337,76,64,0
72.7337,73.05979,77,64,0
73.05979,73.38588,68,64,0
73.38588,73.71197,64,64,0
74.038055,74.36414,69,64,0
74.36414,74.52718,71,64,0
74.52718,74.69022,72,64,0
74.69022,74.85327,69,64,0
74.85327,75.01631,71,64,0
75.01631,75.17936,72,64,0
75.17936,75.3424,74,64,0
75.3424,75.50545,71,64,0
75.50545,75.66849,72,64,0
75.66849,75.994576,74,64,0
75.994576,76.32066,72,64,0
76.32066,76.64675,71,64,0
76.64675,76.97284,76,64,0
76.97284,77.29892,69,64,0
77.29892,77.951096,81,64,0
77.951096,78.60327,79,64,0
78.60327,78.76631,84,64,0
78.76631,78.92936,83,64,0
78.92936,79.0924,81,64,0
79.0924,79.25545,79,64,0
79.25545,79.41849,78,64,0
79.41849,79.581535,76,64,0
79.581535,79.907616,75,64,0
79.907616,80.2337,71,64,0
80.2337,80.55979,73,64,0
80.55979,80.88588,75,64,0
80.88588,81.04893,76,64,0
81.04893,81.21197,74,64,0
81.21197,81.37501,72,64,0
81.37501,81.538055,71,64,0
81.538055,82.19023,72,64,0
82.19023,82.51631,71,64,0
82.51631,82.67936,76,64,0
82.67936,82.8424,75,64,0
82.8424,83.16849,76,64,0
83.16849,83.494576,78,64,0
83.494576,83.82066,79,64,0
83.82066,83.9837,79,64,0
83.9837,84.14675,78,64,0
84.14675,84.47284,79,64,0
84.47284,84.79893,81,64,0
84.79893,87.081535,71,64,0
87.081535,87.244576,76,64,0
87.244576,87.40762,74,64,0
87.40762,87.57066,72,64,0
87.57066,87.7337,71,64,0
87.7337,87.89675,69,64,0
87.89675,88.05979,71,64,0
88.05979,88.38588,72,64,0
88.38588,88.54893,71,64,0
88.54893,88.71197,69,64,0
88.71197,89.36414,67,64,0
89.36414,90.3424,72,64,0
90.3424,90.50545,71,64,0
90.50545,90.66849,69,64,0
90.66849,90.994576,71,64,0
90.994576,91.32066,73,64,0
91.32066,92.951096,74,64,0
92.951096,93.11414,72,64,0
93.11414,93.27718,71,64,0
93.27718,93.60327,72,64,0
93.60327,93.92936,74,64,0
93.92936,94.25545,76,64,0
94.25545,94.581535,69,64,0
94.581535,95.39675,81,64,0
95.39675,95.55979,80,64,0
95.55979,95.72284,81,64,0
95.72284,95.88588,80,64,0
95.88588,96.21197,81,64,0
96.21197,96.538055,83,64,0
96.538055,97.51632,76,64,0
97.51632,97.67936,74,64,0
97.67936,97.84241,72,64,0
97.84241,98.16849,71,64,0
98.16849,98.331535,76,64,0
98.331535,98.494576,74,64,0
98.494576,98.65762,72,64,0
98.65762,98.82066,71,64,0
98.98371,99.14675,68,64,0
99.14675,99.47284,69,64,0
99.79893,100.125015,68,64,0
100.4511,101.10327,69,64,0
109.90762,110.07066,72,64,0
110.07066,110.23371,71,64,0
110.23371,110.5598,72,64,0
110.5598,110.88589,74,64,0
110.88589,111.211975,76,64,0
111.211975,111.375015,76,64,0
111.375015,111.538055,74,64,0
111.538055,111.86414,76,64,0
111.86414,112.19023,77,64,0
112.19023,112.35328,79,64,0
112.35328,112.51632,77,64,0
112.51632,112.67936,76,64,0
112.67936,112.84241,77,64,0
112.84241,113.168495,79,64,0
113.168495,113.49458,81,64,0
113.49458,113.82067,71,64,0
113.82067,114.14675,67,64,0
114.47284,114.79893,72,64,0
114.79893,114.961975,74,64,0
114.961975,115.125015,76,64,0
115.125015,115.288055,72,64,0
115.288055,115.4511,74,64,0
115.4511,115.61414,76,64,0
115.61414,115.77719,77,64,0
115.77719,115.94023,74,64,0
115.94023,116.10328,76,64,0
116.10328,116.42937,77,64,0
116.42937,116.75545,76,64,0
116.75545,117.081535,74,64,0
117.081535,117.40762,79,64,0
117.40762,117.57067,72,64,0
117.57067,117.73371,71,64,0
117.73371,117.89675,74,64,0
117.89675,118.0598,72,64,0
118.0598,118.22284,71,64,0
118.22284,118.38589,69,64,0
118.38589,118.54893,67,64,0
118.54893,118.711975,65,64,0
118.711975,119.03806,64,64,0
119.03806,119.2011,65,64,0
119.2011,119.36414,67,64,0
119.36414,119.52719,69,64,0
119.52719,119.69023,71,64,0
119.69023,119.85328,72,64,0
119.85328,120.01632,74,64,0
120.01632,120.34241,71,64,0
120.34241,120.50545,69,64,0
120.50545,120.668495,67,64,0
120.668495,121.97284,72,64,0
121.97284,122.625015,71,64,0
122.625015,122.9511,72,64,0
122.9511,123.11414,76,64,0
123.11414,123.27719,77,64,0
123.27719,123.60328,76,64,0
123.60328,123.92937,74,64,0
123.92937,124.255455,72,64,0
124.255455,124.581535,73,64,0
124.581535,124.90762,74,64,0
124.90762,125.23371,76,64,0
125.23371,125.5598,69,64,0
125.5598,125.72284,74,64,0
125.72284,125.88589,76,64,0
125.88589,126.211975,74,64,0
126.211975,126.53806,72,64,0
126.53806,126.7011,71,64,0
126.7011,126.86415,72,64,0
126.86415,127.02719,74,64,0
127.02719,127.19023,72,64,0
127.19023,127.51632,71,64,0
127.51632,127.84241,69,64,0
127.84241,128.49458,67,64,0
137.29893,137.46198,74,64,0
137.46198,137.62502,76,64,0
137.62502,137.95111,74,64,0
137.95111,138.27719,72,64,0
138.27719,138.60329,71,64,0
138.60329,138.76633,71,64,0
138.76633,138.92937,72,64,0
138.92937,139.25545,71,64,0
139.25545,139.58154,69,64,0
139.58154,139.74458,67,64,0
139.74458,139.90762,69,64,0
139.90762,140.07066,71,64,0
140.07066,140.23372,69,64,0
140.23372,140.5598,67,64,0
140.5598,140.8859,66,64,0
140.8859,141.21198,76,64,0
141.21198,141.53806,79,64,0
141.86415,142.19023,74,64,0
142.35329,142.51633,71,64,0
142.51633,142.67937,74,64,0
142.67937,142.8424,72,64,0
142.8424,143.00545,71,64,0
143.00545,143.1685,69,64,0
143.1685,143.33154,72,64,0
143.33154,143.49458,71,64,0
143.49458,143.82068,69,64,0
143.82068,144.14676,71,64,0
144.14676,144.47284,72,64,0
144.47284,144.79893,67,64,0
144.79893,144.96198,74,64,0
144.96198,145.12502,76,64,0
145.12502,145.28806,74,64,0
145.28806,145.45111,76,64,0
145.45111,145.50545,77,70,0
145.50545,145.5598,76,50,0
145.5598,145.61415,77,52,0
145.61415,145.6685,76,54,0
145.6685,145.72284,77,57,0
145.72284,145.77719,76,59,0
145.77719,145.83154,77,61,0
145.83154,145.94023,76,63,0
145.94023,146.02176,74,64,0
146.02176,146.10329,76,64,0
146.10329,147.73372,77,64,0
147.73372,147.89676,76,64,0
147.89676,148.0598,77,64,0
148.0598,148.3859,76,64,0
148.3859,148.71198,74,64,0
148.71198,149.03807,72,64,0
149.03807,149.20111,72,64,0
149.20111,149.36415,74,64,0
149.36415,149.69023,72,64,0
149.69023,150.01633,71,64,0
150.01633,150.17937,69,64,0
150.17937,150.3424,71,64,0
150.3424,150.50545,72,64,0
150.50545,150.6685,71,64,0
150.6685,150.99458,69,64,0
150.99458,151.32068,67,64,0
151.32068,151.64676,77,64,0
151.64676,151.97284,81,64,0
152.29893,152.62502,76,64,0
152.62502,152.78807,74,64,0
152.78807,152.95111,72,64,0
152.95111,153.11415,76,64,0
153.11415,153.27719,74,64,0
153.27719,153.44023,72,64,0
153.44023,153.60329,71,64,0
153.60329,153.76633,74,64,0
153.76633,153.92937,72,64,0
153.92937,154.90762,71,64,0
154.90762,155.39676,69,64,0
155.39676,155.5598,71,64,0
155.5598,155.72284,68,64,0
155.72284,155.8859,69,64,0
155.8859,156.70111,71,64,0
156.70111,156.86415,72,64,0
156.86415,157.02719,69,64,0
157.02719,157.19023,71,64,0
157.19023,158.00546,72,64,0
158.00546,158.1685,74,64,0
158.1685,158.33154,71,64,0
158.33154,158.49458,72,64,0
158.49458,158.65762,74,64,0
158.65762,158.82068,72,64,0
158.82068,158.98372,71,64,0
158.98372,159.14676,69,64,0
159.14676,159.3098,68,64,0
159.3098,159.47285,71,64,0
159.47285,159.6359,72,64,0
159.6359,159.79893,74,64,0
159.79893,159.96198,76,64,0
159.96198,160.12502,77,64,0
160.12502,160.61415,79,64,0
160.61415,160.77719,81,64,0
160.77719,160.94023,79,64,0
160.94023,161.10329,77,64,0
161.10329,161.9185,79,64,0
161.9185,162.08154,77,64,0
162.08154,162.24458,76,64,0
162.24458,162.40762,77,64,0
162.40762,163.22285,79,64,0
163.22285,163.3859,82,64,0
163.3859,163.54893,81,64,0
163.54893,163.71198,79,64,0
163.71198,163.87502,77,64,0
163.87502,164.03807,76,64,0
164.03807,164.20111,74,64,0
164.20111,164.36415,73,64,0
164.36415,164.52719,74,64,0
164.52719,164.69025,76,64,0
164.69025,164.85329,74,64,0
164.85329,165.01633,76,64,0
165.01633,165.07068,77,70,0
165.07068,165.12502,76,50,0
165.12502,165.17937,77,52,0
165.17937,165.23372,76,54,0
165.23372,165.28807,77,57,0
165.28807,165.3424,76,59,0
165.3424,165.39676,77,61,0
165.39676,165.50546,76,63,0
165.50546,165.6685,74,64,0
165.6685,167.62502,74,64,0
173.82068,173.98372,76,64,0
173.98372,174.14676,77,64,0
174.14676,174.47285,76,64,0
174.47285,174.79893,74,64,0
174.79893,175.12503,72,64,0
175.12503,175.28807,72,64,0
175.28807,175.45111,74,64,0
175.45111,175.77719,72,64,0
175.77719,176.10329,70,64,0
176.10329,176.26633,69,64,0
176.26633,176.42937,70,64,0
176.42937,176.5924,72,64,0
176.5924,176.75546,70,64,0
176.75546,177.08154,69,64,0
177.08154,177.40764,67,64,0
177.40764,177.73372,77,64,0
177.73372,178.0598,81,64,0
178.3859,178.71198,76,64,0
178.71198,178.87503,74,64,0
178.87503,179.03807,73,64,0
179.03807,179.20111,76,64,0
179.20111,179.36415,74,64,0
179.36415,179.52719,73,64,0
179.52719,179.69025,71,64,0
179.69025,179.85329,74,64,0
179.85329,180.01633,72,64,0
180.01633,180.34242,71,64,0
180.34242,180.6685,73,64,0
180.6685,180.99458,74,64,0
180.99458,181.32068,69,64,0
181.32068,182.78807,76,64,0
182.78807,182.95111,73,64,0
182.95111,183.11415,74,64,0
183.11415,183.27719,77,64,0
183.27719,184.09242,79,64,0
184.09242,184.25546,76,64,0
184.25546,184.4185,77,64,0
184.4185,184.58154,81,64,0
184.58154,185.39676,82,64,0
185.39676,185.55981,79,64,0
185.55981,185.72285,81,64,0
185.72285,185.8859,84,64,0
185.8859,186.21198,74,64,0
186.21198,186.37503,76,64,0
186.37503,186.53807,79,64,0
186.53807,187.35329,72,64,0
187.35329,187.51633,65,64,0
187.51633,187.67937,67,64,0
187.67937,188.00546,70,64,0
188.00546,188.1685,70,64,0
188.1685,188.33154,69,64,0
188.33154,188.49458,67,64,0
188.49458,188.98372,67,64,0
188.98372,189.11958,65,64,0
189.15492,189.80708,65,64,0
189.80708,193.39404,72,64,0
193.39404,193.72014,69,64,0
193.72014,194.6984,75,64,0
194.6984,195.02448,74,64,0
195.02448,195.18753,72,64,0
195.18753,195.35057,70,64,0
195.35057,195.51361,74,64,0
195.51361,195.67665,72,64,0
195.67665,195.8397,70,64,0
195.8397,196.00275,72,64,0
196.00275,196.16579,74,64,0
196.16579,196.32883,72,64,0
196.32883,196.49187,70,64,0
196.49187,196.65492,69,64,0
196.65492,196.81796,67,64,0
196.81796,196.981,65,64,0
196.981,197.14404,67,64,0
197.14404,197.3071,69,64,0
197.3071,197.47014,70,64,0
197.47014,197.63318,69,64,0
197.63318,197.79622,67,64,0
197.79622,197.95926,65,64,0
197.95926,198.12231,64,64,0
198.12231,198.28535,62,64,0
198.28535,199.5897,76,64,0
199.91579,200.07883,76,64,0
200.07883,200.24187,74,64,0
200.24187,200.56796,76,64,0
200.56796,200.89404,77,64,0
200.89404,201.22014,79,64,0
201.22014,201.38318,79,64,0
201.38318,201.54622,77,64,0
201.54622,201.87231,79,64,0
201.87231,202.1984,81,64,0
202.1984,202.36143,82,64,0
202.36143,202.52449,81,64,0
202.52449,202.68753,79,64,0
202.68753,202.85057,81,64,0
202.85057,203.01361,82,64,0
203.01361,203.17665,79,64,0
203.17665,203.3397,81,64,0
203.3397,203.50275,76,64,0
203.50275,203.66579,77,64,0
203.66579,203.82883,76,64,0
203.99188,204.16284,76,64,0
204.16284,204.37865,77,64,0
204.37865,204.59447,74,64,0
204.59447,204.81029,76,64,0
204.81029,205.02667,73,64,0
205.02667,205.24628,74,64,0
205.24628,205.46649,72,64,0
205.46649,205.69006,70,64,0
205.69006,205.91425,72,64,0
205.91425,206.14197,74,64,0
206.14197,206.36476,70,64,0
206.36476,206.55957,72,64,0
206.55957,206.79132,69,64,0
206.79132,208.51907,76,64,0
206.79132,208.51907,80,64,0
209.2983,211.20593,81,64,0
211.20593,211.39113,76,64,0
211.39113,211.57631,74,64,0
211.57631,211.94669,76,64,0
211.94669,212.32343,78,64,0
212.32343,212.77888,80,64,0
212.77888,213.0066,80,64,0
213.0066,213.23433,78,64,0
213.23433,213.68977,80,64,0
213.68977,214.14459,81,64,0
214.14459,214.36816,83,64,0
214.36816,214.59174,81,64,0
214.59174,214.8153,80,64,0
214.8153,215.03888,81,64,0
215.03888,215.48602,83,64,0
215.48602,215.93317,69,64,0
215.48602,215.93317,84,64,0
215.93317,216.82744,75,64,0
215.93317,216.82744,69,64,0
215.93317,216.82744,71,64,0
217.27458,217.72173,76,64,0
217.27458,217.72173,71,64,0
217.72173,218.16887,72,64,0
218.16887,218.39244,71,64,0
217.72173,218.61601,69,64,0
218.39244,218.61601,69,64,0
218.61601,218.83957,72,64,0
218.83957,219.06314,71,64,0
218.61601,219.06314,69,64,0
219.06314,219.28671,69,64,0
219.28671,219.51028,68,64,0
219.06314,219.51028,64,64,0
219.51028,220.40457,69,64,0
219.51028,220.40457,64,64,0
223.53456,223.75813,74,64,0
223.75813,223.9817,73,64,0
223.9817,224.42883,74,64,0
224.42883,224.87598,76,64,0
224.87598,225.32312,77,64,0
225.32312,225.54669,77,64,0
225.54669,225.77026,76,64,0
225.77026,226.2174,77,64,0
226.2174,226.66455,79,64,0
226.66455,226.8881,81,64,0
226.8881,227.11168,79,64,0
227.11168,227.33525,77,64,0
227.33525,227.55882,79,64,0
227.55882,228.00597,81,64,0
228.00597,228.45311,82,64,0
228.45311,228.90025,73,64,0
228.90025,229.3474,69,64,0
229.79848,230.48164,74,64,0
230.48164,230.70522,72,64,0
230.70522,230.90521,71,64,0
230.90521,231.10603,72,64,0
231.10603,231.31151,74,64,0
231.31151,231.51831,76,64,0
231.51831,231.7326,78,64,0
231.7326,231.9499,80,64,0
231.9499,238.12563,81,64,0
0.326087,0.4891305,69,64,0
0.4891305,0.652174,68,64,0
0.652174,0.978261,69,64,0
0.978261,1.304348,71,64,0
1.304348,1.630435,72,64,0
1.630435,1.7934785,72,64,0
1.7934785,1.956522,71,64,0
1.956522,2.282609,72,64,0
2.282609,2.608696,74,64,0
2.608696,2.7717395,76,64,0
2.7717395,2.934783,74,64,0
2.934783,3.0978265,72,64,0
3.0978265,3.26087,74,64,0
3.26087,3.586957,76,64,0
3.586957,3.913044,77,64,0
3.913044,4.239131,68,64,0
4.239131,4.565218,64,64,0
4.891305,5.217392,69,64,0
5.217392,5.3804355,71,64,0
5.3804355,5.543479,72,64,0
5.543479,5.7065225,69,64,0
5.7065225,5.869566,71,64,0
5.869566,6.0326095,72,64,0
6.0326095,6.195653,74,64,0
6.195653,6.3586965,71,64,0
6.3586965,6.52174,72,64,0
6.52174,6.847827,74,64,0
6.847827,7.173914,72,64,0
7.173914,7.500001,71,64,0
7.500001,7.826088,76,64,0
