start_time,end_time,note_value,velocity,instrument_program_number
0.0,0.33792418,72,1,40
0.8246164,2.0121164,60,60,40
2.0246165,3.3153765,69,60,40
3.3289633,4.47079,67,60,40
4.4828095,6.778482,72,60,40
6.7905016,7.932328,65,60,40
7.9443474,9.181327,67,60,40
9.194347,10.543778,65,60,40
10.557983,13.044963,65,60,40
13.057983,15.268631,65,60,40
15.280206,17.490852,64,60,40
17.502428,19.713076,62,60,40
19.72465,21.935297,64,60,40
21.94687,24.157518,65,100,40
24.169094,26.613699,67,100,40
26.627287,29.222393,65,88,40
29.235981,30.335518,81,71,40
30.347092,31.446629,74,60,40
31.458202,32.55774,76,60,40
32.569313,33.66885,77,60,40
33.680424,34.77996,79,60,40
34.791534,35.89107,77,60,40
35.902645,37.04447,76,60,40
37.05649,38.293472,67,60,40
38.30649,40.793472,67,60,40
40.80649,43.01714,69,68,40
43.028713,45.23936,72,76,40
45.250935,47.461586,69,84,40
47.47316,49.683807,67,92,40
49.69538,51.90603,65,100,40
51.917603,54.36221,62,90,40
54.375797,56.671467,64,84,40
61.29887,62.398407,67,60,40
62.40998,63.509518,60,60,40
63.521095,64.66292,62,60,40
64.67494,65.9657,64,60,40
65.97929,68.36678,64,60,40
68.37929,70.589935,72,60,40
70.60151,72.81216,71,68,40
72.82373,75.03438,72,76,40
75.04595,77.2566,69,85,40
77.26817,79.47882,71,93,40
79.490395,81.78607,72,102,40
81.79809,84.185585,62,110,40
81.79809,84.185585,74,110,40
84.19809,85.38559,79,86,40
85.39809,86.58559,72,71,40
86.59809,87.697624,74,60,40
87.7092,88.80874,76,60,40
88.82031,89.919846,77,60,40
89.93142,91.03096,76,60,40
91.042534,92.14207,71,60,40
92.15364,93.25318,72,60,40
93.264755,95.4754,72,60,40
95.48698,97.697624,72,60,40
97.7092,99.919846,74,70,40
99.93142,102.14207,67,80,40
102.15364,104.36429,69,90,40
104.37586,106.58651,62,100,40
106.59808,109.088844,64,100,40
109.10243,111.69754,65,91,40
111.71113,112.81066,72,60,40
112.822235,113.921776,81,60,40
113.93335,115.03288,76,60,40
115.044464,116.144,77,60,40
116.15557,117.25511,77,65,40
117.266685,118.40851,74,76,40
118.420525,119.65751,72,88,40
119.670525,121.01996,71,100,40
121.034164,123.74723,72,60,40
123.76144,126.057106,72,65,40
126.06913,128.3648,74,76,40
128.37682,130.6725,67,88,40
130.68451,133.1715,69,100,40
133.18451,135.48018,65,60,40
135.4922,137.78787,67,60,40
137.7999,140.14124,64,65,40
140.15375,141.39015,81,88,40
141.45808,142.87996,81,100,40
142.95808,146.04837,81,110,40
146.0692,146.27753,81,100,40
146.27753,146.3817,83,90,40
146.3817,146.48587,81,80,40
146.48587,146.59003,83,70,40
146.59003,146.6942,81,60,40
146.6942,146.79837,83,60,40
146.79837,146.90253,81,60,40
146.90253,146.97198,83,60,40
146.97198,147.04143,81,60,40
147.04143,147.11087,83,60,40
147.11087,147.18031,81,60,40
147.18031,147.24976,83,60,40
147.24976,147.3192,81,60,40
147.3192,147.38864,83,60,40
147.38864,147.45808,81,60,40
147.45808,147.52753,83,60,40
147.52753,147.59698,81,60,40
147.59698,147.66643,83,60,40
147.66643,147.73587,81,60,40
147.73587,147.80531,83,60,40
147.80531,147.87476,81,60,40
147.87476,147.9442,83,60,40
147.9442,148.01364,81,60,40
148.01364,148.08308,83,60,40
148.08308,148.15253,81,60,40
148.15253,148.22198,83,60,40
148.22198,148.29143,81,60,40
148.29143,148.36087,83,60,40
148.36087,148.43031,81,60,40
148.43031,148.49976,83,60,40
148.49976,148.5692,81,60,40
148.5692,148.63864,83,110,40
148.63864,148.70808,81,110,40
148.70808,148.77753,83,110,40
148.77753,148.84697,81,110,40
148.84697,148.91643,83,110,40
148.91643,148.98587,81,110,40
148.98587,149.05531,83,110,40
149.05531,149.12476,81,110,40
149.12476,149.1942,83,110,40
149.1942,149.26364,81,110,40
149.26364,149.33308,83,110,40
149.33308,149.40253,81,110,40
149.40253,149.47197,83,110,40
149.47197,149.54143,81,110,40
149.54143,149.61087,83,110,40
149.61087,149.68031,81,110,40
149.68031,149.74976,83,110,40
149.74976,149.8192,81,110,40
149.8192,149.88864,83,110,40
149.88864,149.95808,81,110,40
149.95808,150.02753,83,110,40
150.02753,150.09697,81,110,40
150.09697,150.16643,83,110,40
150.16643,150.23587,81,110,40
150.23587,150.30531,83,110,40
150.30531,150.37476,81,110,40
150.37476,150.4442,83,110,40
150.4442,150.51364,81,110,40
150.51364,150.58308,83,110,40
150.58308,150.65253,81,110,40
150.65253,150.72197,83,110,40
150.72197,150.79143,81,110,40
150.79143,150.86087,83,110,40
150.86087,150.93031,81,110,40
150.93031,150.99976,83,110,40
150.99976,151.0692,81,110,40
151.0692,151.13864,83,100,40
151.13864,151.20808,81,90,40
151.20808,151.27753,83,80,40
151.27753,151.34697,81,70,40
151.34697,151.41643,83,60,40
151.41643,151.48587,81,60,40
151.48587,151.55531,83,60,40
151.55531,151.62476,81,60,40
151.62476,151.6942,83,60,40
151.6942,151.76364,81,60,40
151.76364,151.83308,83,60,40
151.83308,151.90253,81,60,40
151.90253,151.97197,83,60,40
151.97197,152.04143,81,60,40
152.04143,152.11087,83,60,40
152.11087,152.18031,81,60,40
152.18031,152.24976,83,60,40
152.24976,152.3192,81,60,40
152.3192,152.38864,83,60,40
152.38864,152.45808,81,60,40
152.45808,152.52753,83,60,40
152.52753,152.59697,81,60,40
152.59697,152.66641,83,60,40
152.66641,152.73587,81,60,40
152.73587,152.80531,83,60,40
152.80531,152.87476,81,60,40
152.87476,152.9442,83,60,40
152.9442,153.01364,81,60,40
153.01364,153.08308,83,60,40
153.08308,153.15253,81,60,40
153.15253,153.22197,83,60,40
153.22197,153.29141,81,60,40
153.29141,153.43031,79,60,40
153.43031,153.56052,81,60,40
153.5692,153.9685,83,110,40
154.40253,154.80183,55,110,40
155.23587,156.06052,83,110,40
156.48587,156.88516,81,60,40
157.11086,157.24976,81,60,40
157.3192,157.45808,83,60,40
157.52753,157.66641,85,60,40
157.73586,157.87476,86,60,40
157.9442,158.08308,88,60,40
158.15253,158.29141,90,60,40
158.36086,158.49976,91,60,40
158.5692,159.39384,93,65,40
159.40253,160.22719,91,79,40
160.23586,161.06052,90,100,40
161.0692,161.48586,88,100,40
161.48586,161.90253,76,100,40
161.90253,163.1904,83,100,40
163.1904,163.66957,81,65,40
163.6904,163.76616,83,110,40
163.76616,163.84192,81,110,40
163.84192,163.91768,83,110,40
163.91768,163.99344,81,110,40
163.99344,164.0692,83,110,40
164.0692,164.14496,81,110,40
164.14496,164.2207,83,110,40
164.2207,164.29646,81,110,40
164.29646,164.37222,83,110,40
164.37222,164.44798,81,110,40
164.44798,164.52374,83,110,40
164.52374,164.5995,81,110,40
164.5995,164.67525,83,110,40
164.67525,164.751,81,110,40
164.751,164.82677,83,110,40
164.82677,164.90253,81,110,40
164.90253,164.97829,83,110,40
164.97829,165.05405,81,110,40
165.05405,165.1298,83,110,40
165.1298,165.20555,81,110,40
165.20555,165.28131,83,110,40
165.28131,165.35707,81,110,40
165.35707,165.43283,83,110,40
165.43283,165.50859,81,110,40
165.50859,165.59192,83,110,40
165.59192,165.67525,81,110,40
165.67525,165.75859,83,110,40
165.75859,165.84192,81,110,40
165.84192,165.92525,83,110,40
165.92525,166.00859,81,110,40
166.00859,166.09192,83,110,40
166.09192,166.17525,81,101,40
166.17525,166.34192,80,91,40
166.34192,166.49817,81,71,40
166.50859,166.9079,81,60,40
166.92525,167.32455,57,60,40
167.75859,168.36623,88,60,40
168.38359,168.48775,86,60,40
168.48775,168.58324,85,60,40
168.59192,168.7308,83,60,40
168.80025,168.93915,81,60,40
169.00859,169.07803,83,110,40
169.07803,169.14748,81,110,40
169.14748,169.21692,83,110,40
169.21692,169.28636,81,110,40
169.28636,169.3558,83,110,40
169.3558,169.42525,81,110,40
169.42525,169.49469,83,110,40
169.49469,169.56415,81,110,40
169.56415,169.63359,83,110,40
169.63359,169.70303,81,110,40
169.70303,169.77248,83,110,40
169.77248,169.84192,81,110,40
169.84192,169.91136,83,110,40
169.91136,169.9808,81,110,40
169.9808,170.05025,83,110,40
170.05025,170.11969,81,110,40
170.11969,170.18915,83,110,40
170.18915,170.25859,81,110,40
170.25859,170.32803,83,110,40
170.32803,170.39748,81,110,40
170.39748,170.46692,83,110,40
170.46692,170.53636,81,110,40
170.53636,170.6058,83,110,40
170.6058,170.67525,81,110,40
170.67525,170.74469,83,110,40
170.74469,170.81415,81,110,40
170.81415,170.88359,83,110,40
170.88359,170.95303,81,110,40
170.95303,171.02248,83,110,40
171.02248,171.09192,81,110,40
171.09192,171.16136,83,110,40
171.16136,171.2308,81,101,40
171.2308,171.36969,80,91,40
171.36969,171.49991,81,71,40
171.50859,171.90788,81,60,40
171.92525,172.32455,66,60,40
172.75859,173.36623,85,60,40
173.38359,173.48775,83,60,40
173.48775,173.58324,81,60,40
173.59192,173.7308,79,60,40
173.80025,173.93913,78,60,40
174.00859,174.40788,83,110,40
174.84192,175.24123,55,110,40
175.67525,176.49123,83,110,40
176.87317,176.92525,83,60,40
176.92525,177.13358,81,60,40
177.13358,177.34192,80,60,40
177.55025,177.68913,81,60,40
177.7065,177.74123,81,60,40
177.75858,177.96692,83,60,40
177.96692,178.1058,85,60,40
178.12317,178.17525,85,60,40
178.17525,178.39584,86,60,40
178.39584,178.5429,88,60,40
178.56128,178.61642,88,60,40
178.61642,178.8508,90,60,40
178.8508,179.07997,91,60,40
179.1008,179.98315,93,60,40
179.98315,180.86551,91,60,40
180.86551,181.74786,90,60,40
181.74786,182.20241,88,60,40
182.20241,182.5433,76,60,40
182.60013,183.04758,76,60,40
182.65695,184.07832,83,60,40
184.07832,184.33694,81,60,40
184.33694,184.58478,80,60,40
184.59557,185.45953,79,60,40
187.24261,188.10658,86,60,40
188.12497,188.98894,79,60,40
189.00732,189.08086,78,60,40
189.08086,189.15439,79,60,40
189.15439,189.2279,78,60,40
189.2279,189.30144,79,60,40
189.30144,189.37497,78,60,40
189.37497,189.4485,79,60,40
189.4485,189.52203,78,60,40
189.52203,189.59555,79,60,40
189.59555,189.66908,78,60,40
189.66908,189.77939,76,60,40
189.77939,189.88048,78,60,40
189.88968,190.75365,76,60,40
192.53673,193.4007,86,60,40
193.41908,193.74106,79,60,40
193.87363,194.1956,79,60,40
194.32817,194.4063,78,60,40
194.4063,194.48442,79,60,40
194.48442,194.56255,78,60,40
194.56255,194.67973,76,60,40
194.67973,194.79692,78,60,40
194.79692,195.04692,79,60,40
195.04692,195.30362,81,55,40
195.31479,195.56479,82,50,40
195.56479,195.77312,71,50,40
196.00038,196.19136,83,50,40
196.20872,196.41705,78,50,40
196.41705,196.60803,67,50,40
196.83372,197.02469,79,50,40
197.04205,197.25038,75,50,40
197.25038,197.44136,64,50,40
197.66705,197.85803,76,50,40
197.87538,198.08372,74,50,40
198.08372,198.27469,64,50,40
198.50038,198.69136,73,50,40
198.70872,198.91705,74,50,40
198.91705,199.10803,64,50,40
199.33372,199.52469,76,50,40
199.54205,199.75038,78,50,40
199.75038,199.94136,67,50,40
200.16705,200.35803,79,50,40
200.37538,200.58372,80,50,40
200.58372,200.77469,76,52,40
201.00038,201.19136,81,57,40
201.20872,201.41705,82,60,40
201.41705,201.60803,76,63,40
201.8281,202.0139,83,68,40
202.03079,202.23349,82,71,40
202.23349,202.41931,76,73,40
202.6389,202.8247,81,79,40
202.8416,203.03897,82,81,40
203.03897,203.2199,76,84,40
203.4337,203.61462,83,89,40
203.63107,203.82338,82,92,40
203.82338,203.99966,76,95,40
204.208,204.38428,81,100,40
204.4003,204.60864,82,102,40
204.60864,204.7996,76,105,40
205.04425,205.2734,83,110,40
205.29425,206.1844,83,125,40
206.20334,207.1213,86,110,40
207.14084,208.12,90,110,40
208.14084,208.64084,93,110,40
208.64084,209.14084,81,110,40
209.14084,210.39754,88,110,40
210.40869,210.67654,86,90,40
210.67654,210.95433,88,80,40
210.95433,211.25433,90,70,40
211.25433,212.17712,91,60,40
213.9602,214.82417,86,60,40
214.84256,215.13667,79,60,40
215.28374,215.58705,79,60,40
215.72491,215.79845,78,60,40
215.79845,215.87198,79,60,40
215.87198,215.9455,78,60,40
215.9455,216.01903,79,60,40
216.01903,216.09256,78,60,40
216.09256,216.16609,79,60,40
216.16609,216.23962,78,60,40
216.23962,216.31316,79,60,40
216.31316,216.38667,78,60,40
216.38667,216.49698,76,60,40
216.49698,216.59807,78,60,40
216.60727,217.47124,76,60,40
219.25432,219.40138,86,60,40
219.47491,219.6955,86,60,40
219.6955,219.91609,88,60,40
219.91609,220.13667,86,60,40
220.13667,220.2882,79,60,40
220.36395,220.59122,79,60,40
220.59122,220.82559,81,60,40
220.82559,221.05997,79,60,40
221.05997,221.12247,78,60,40
221.12247,221.18497,79,60,40
221.18497,221.24747,78,60,40
221.24747,221.30997,76,60,40
221.30997,221.55997,78,60,40
221.55997,221.82784,79,60,40
221.82784,222.07336,81,60,40
222.09569,222.34569,82,50,40
222.34569,222.55402,71,50,40
222.79355,222.99576,83,50,40
223.01413,223.22247,78,50,40
223.22247,223.41344,67,50,40
223.63913,223.83011,79,50,40
223.84747,224.0558,75,50,40
224.0558,224.24678,64,50,40
224.47247,224.66344,76,50,40
224.6808,224.88913,74,50,40
224.88913,225.08011,64,50,40
225.3058,225.49677,73,50,40
225.51413,225.72247,74,50,40
225.72247,225.91344,64,50,40
226.13913,226.33011,76,50,40
226.34747,226.5558,78,50,40
226.5558,226.74677,67,50,40
226.97247,227.16344,79,50,40
227.1808,227.38913,80,50,40
227.38913,227.58011,76,52,40
227.8058,227.99677,81,57,40
228.01413,228.22247,82,60,40
228.22247,228.41344,76,63,40
228.6335,228.8193,83,68,40
228.8362,229.03891,82,71,40
229.03891,229.22472,76,73,40
229.4443,229.63013,81,79,40
229.64702,229.84972,82,81,40
229.84972,230.03552,76,84,40
230.24979,230.43071,83,89,40
230.44716,230.63947,82,92,40
230.63947,230.81575,76,95,40
231.02408,231.20036,81,100,40
231.21638,231.42471,82,102,40
231.42471,231.61569,76,105,40
231.86032,232.0895,83,110,40
232.11032,233.02829,83,125,40
233.04782,233.96579,86,110,40
233.98532,234.9645,90,110,40
234.98532,235.48532,93,110,40
235.48532,235.98532,81,110,40
235.98532,237.22491,88,110,40
237.23532,237.48532,86,90,40
237.48532,237.75319,85,80,40
237.75319,238.02818,86,70,40
238.05318,239.8087,86,60,40
239.81789,240.69106,78,60,40
240.70024,243.3381,79,60,40
243.3473,245.09363,78,60,40
245.112,245.55318,78,60,40
245.55318,245.77377,79,60,40
245.77377,245.97597,81,60,40
245.99435,246.85832,83,60,40
246.87671,247.74068,83,60,40
247.75906,248.20024,83,60,40
248.20024,248.42082,85,60,40
248.42082,248.62303,86,60,40
248.64142,249.50539,86,65,40
249.52377,250.38774,81,82,40
250.40611,251.2701,78,85,40
251.28847,252.44656,79,60,40
252.46494,252.75906,79,60,40
252.75906,253.05318,81,60,40
253.05318,253.34729,83,60,40
253.34729,253.64142,81,60,40
253.64142,253.91714,79,60,40
253.93553,254.37671,79,60,40
254.37671,255.24068,78,60,40
255.25906,255.68185,78,60,40
255.70024,255.77376,78,60,40
255.77376,255.84729,79,60,40
255.84729,255.92082,78,60,40
255.92082,256.03113,76,60,40
256.03113,256.14142,78,60,40
256.14142,256.3528,79,60,40
256.362,256.5642,81,60,40
256.58258,256.80316,82,60,40
256.80316,257.00537,83,60,40
257.02377,257.88773,83,60,40
257.90613,258.32892,83,60,40
258.3473,258.4208,83,60,40
258.4208,258.49435,85,60,40
258.49435,258.56787,83,60,40
258.56787,258.67816,82,60,40
258.67816,258.78845,83,60,40
258.78845,259.00906,85,60,40
259.00906,259.22046,86,60,40
259.22964,259.6708,86,60,40
259.6708,260.5348,81,63,40
260.55316,260.99435,82,71,40
260.99435,261.4631,85,75,40
261.4631,261.92682,83,79,40
261.94696,262.82013,83,83,40
262.8293,264.18042,74,100,40
264.18042,264.64413,76,70,40
264.6643,265.5588,76,60,40
265.568,266.44116,78,60,40
266.45035,267.32352,79,70,40
267.3327,268.20587,81,80,40
268.21506,269.1428,83,90,40
269.15256,270.16125,85,100,40
270.17282,271.0662,86,60,40
271.0846,271.52576,81,60,40
271.52576,271.94855,78,65,40
271.96695,272.4081,78,70,40
272.4081,272.8309,79,75,40
272.8493,273.29047,80,80,40
273.29047,273.71326,81,85,40
273.73163,274.1862,82,90,40
274.1862,274.6218,83,95,40
274.64075,275.1095,83,100,40
275.1095,275.57318,85,80,40
275.59335,276.09335,85,60,40
276.09335,276.5725,86,60,40
276.59335,277.3225,86,60,40
277.59335,278.55316,86,55,40
278.6648,279.6246,86,55,40
280.80765,281.8413,84,50,40
281.9615,282.99515,84,50,40
284.26917,285.399,85,50,40
286.67303,288.467,84,60,40
296.81192,299.02255,77,60,40
299.03415,301.24478,77,60,40
301.25635,303.467,76,60,40
303.47858,305.68924,74,60,40
305.7008,307.91144,76,60,40
307.92303,310.13367,77,65,40
310.14523,312.71967,79,100,40
312.7339,314.98898,77,90,40
324.14847,326.35913,79,60,40
326.3707,328.58136,81,66,40
328.59293,330.8036,84,73,40
330.81516,333.0258,81,80,40
333.03738,335.24802,79,87,40
335.25958,337.51254,77,94,40
337.52454,340.07614,74,100,40
340.091,342.3461,76,90,40
351.24655,353.4572,76,60,40
353.46878,355.67944,84,60,40
355.691,357.90164,83,68,40
357.91324,360.12387,84,76,40
360.13544,362.3461,81,85,40
362.35767,364.56833,83,93,40
364.5799,366.81146,84,102,40
366.8235,369.47797,86,110,40
378.42694,380.63757,84,60,40
380.64914,382.8598,84,60,40
382.87137,385.08203,86,68,40
385.0936,387.30426,79,76,40
387.31583,389.52646,81,84,40
389.53806,391.7487,74,92,40
391.76025,394.28876,76,100,40
394.30365,396.55875,77,90,40
405.4592,407.66986,84,60,40
407.68143,409.89206,84,60,40
409.90366,412.1143,86,66,40
412.12585,414.33652,79,72,40
414.34808,416.55875,81,79,40
416.5703,418.78094,77,85,40
418.79254,421.00317,79,91,40
421.01474,423.2677,76,98,40
423.27972,426.06213,81,104,40
426.0795,426.7229,86,110,40
426.96185,427.60522,62,110,40
427.8442,428.7082,90,110,40
429.16772,429.59055,88,60,40
429.8295,430.05008,81,60,40
430.05008,430.2707,86,60,40
430.2707,430.49127,85,60,40
430.49127,430.71185,83,60,40
430.71185,430.93243,81,60,40
430.93243,431.15305,83,60,40
431.15305,431.35522,85,60,40
431.37363,431.77292,86,110,40
432.20694,432.60626,62,110,40
433.04028,433.90427,86,110,40
434.3638,434.78662,85,60,40
435.02557,435.24615,78,60,40
435.24615,435.46677,83,60,40
435.46677,435.68735,81,60,40
435.68735,435.90793,79,60,40
435.90793,436.1285,78,60,40
436.1285,436.34912,79,60,40
436.34912,436.5513,81,60,40
436.5697,436.969,83,110,40
437.403,437.80234,55,110,40
438.23636,439.10034,83,110,40
439.55988,439.9827,81,60,40
440.22165,440.3687,81,60,40
440.44223,440.5893,83,60,40
440.66284,440.80988,85,60,40
440.88342,441.0305,86,60,40
441.104,441.25107,88,60,40
441.3246,441.47165,90,60,40
441.5452,441.69223,91,60,40
441.76578,442.63895,93,60,40
442.64813,443.52127,91,70,40
443.5305,444.40363,90,80,40
444.41284,444.854,88,90,40
444.854,445.29517,76,95,40
445.29517,446.62674,83,100,40
446.64627,447.1418,81,66,40
447.16415,447.3308,81,110,40
447.41415,447.5612,62,110,40
447.63474,447.7818,78,110,40
447.85532,448.00238,79,110,40
448.0759,448.22296,81,110,40
448.29648,448.44354,83,110,40
448.5171,448.66415,85,110,40
448.73767,448.88474,86,110,40
448.95825,449.10532,88,110,40
449.17883,449.3259,90,100,40
449.39944,449.54648,91,90,40
449.62003,449.7671,93,80,40
449.8406,450.2634,93,60,40
450.2818,450.35532,69,60,40
450.35532,450.42883,71,60,40
450.42883,450.50238,69,60,40
450.50238,450.5759,71,60,40
450.5759,450.64944,69,60,40
450.64944,450.72296,71,60,40
450.72296,450.79648,69,60,40
450.79648,450.87003,71,60,40
450.87003,450.94354,69,60,40
450.94354,451.0171,71,60,40
451.0171,451.0906,69,60,40
451.0906,451.16415,71,60,40
451.16415,451.23767,69,60,40
451.23767,451.3112,71,60,40
451.3112,451.38474,69,60,40
451.38474,451.49503,68,60,40
451.49503,451.60532,69,60,40
451.60532,451.67883,81,60,40
451.67883,451.75238,83,60,40
451.75238,451.8259,81,60,40
451.8259,451.89944,83,60,40
451.89944,451.97296,81,60,40
451.97296,452.04648,83,60,40
452.04648,452.12003,81,60,40
452.12003,452.19354,83,60,40
452.19354,452.2671,81,60,40
452.2671,452.37738,80,60,40
452.37738,452.4693,81,60,40
452.48767,452.63474,74,110,40
452.70825,452.85532,62,110,40
452.92883,453.0759,74,110,40
453.14944,453.29648,76,110,40
453.37003,453.5171,78,110,40
453.5906,453.73767,83,110,40
453.8112,453.95825,85,110,40
454.0318,454.17883,86,110,40
454.25238,454.39944,88,110,40
454.47296,454.62003,90,100,40
454.69354,454.8406,90,90,40
454.91412,455.0612,90,80,40
455.13474,455.55753,90,60,40
455.5759,455.64944,66,60,40
455.64944,455.72296,67,60,40
455.72296,455.79648,66,60,40
455.79648,455.87003,67,60,40
455.87003,455.94354,66,60,40
